# time (sec); x,y,z (m); x_err,y_err,z_err (m)
0.000000000000000000e+00 0.000000000000000000e+00 0.000000000000000000e+00 1.000000000000000000e+00 5.000000000000000278e-02 5.000000000000000278e-02 5.000000000000000278e-02
3.337041156840934303e-02 3.317060379550216265e-01 5.924188979141857591e-06 9.983893420398746166e-01 5.000000000000000278e-02 5.000000000000000278e-02 5.000000000000000278e-02
6.674082313681868606e-02 6.595635251006261024e-01 -5.298036610705602543e-05 9.945947937772920966e-01 5.000000000000000278e-02 5.000000000000000278e-02 5.000000000000000278e-02
1.001112347052280360e-01 9.837347654273846942e-01 -3.384727695938621428e-04 9.894580382095988780e-01 5.000000000000000278e-02 5.000000000000000278e-02 5.000000000000000278e-02
1.334816462736373721e-01 1.304341175948548814e+00 -9.523551708639591560e-04 9.838205402056238169e-01 5.000000000000000278e-02 5.000000000000000278e-02 5.000000000000000278e-02
1.668520578420467360e-01 1.621465239611374676e+00 -2.008120072944413487e-03 9.782292826801511909e-01 5.000000000000000278e-02 5.000000000000000278e-02 5.000000000000000278e-02
2.002224694104560720e-01 1.935156770716982777e+00 -3.577642521534206248e-03 9.732264881771005571e-01 5.000000000000000278e-02 5.000000000000000278e-02 5.000000000000000278e-02
2.335928809788654081e-01 2.245441669739816959e+00 -5.721397640433575557e-03 9.691571743045186427e-01 5.000000000000000278e-02 5.000000000000000278e-02 5.000000000000000278e-02
2.669632925472747442e-01 2.552322603020454217e+00 -8.471887102309710177e-03 9.663501008165998885e-01 5.000000000000000278e-02 5.000000000000000278e-02 5.000000000000000278e-02
3.003337041156841081e-01 2.855789215397452452e+00 -1.184304601316644653e-02 9.650046037089412554e-01 5.000000000000000278e-02 5.000000000000000278e-02 5.000000000000000278e-02
3.337041156840934719e-01 3.155816780835076329e+00 -1.582966638624975705e-02 9.652972350294634074e-01 5.000000000000000278e-02 5.000000000000000278e-02 5.000000000000000278e-02
3.670745272525027803e-01 3.452375081399507550e+00 -2.040823005314820401e-02 9.673197506378224952e-01 5.000000000000000278e-02 5.000000000000000278e-02 5.000000000000000278e-02
4.004449388209121441e-01 3.745426811051267180e+00 -2.554185567360904227e-02 9.711399654241007484e-01 5.000000000000000278e-02 5.000000000000000278e-02 5.000000000000000278e-02
4.338153503893215079e-01 4.034934250826799129e+00 -3.117838995501520313e-02 9.767697929715800642e-01 5.000000000000000278e-02 5.000000000000000278e-02 5.000000000000000278e-02
4.671857619577308163e-01 4.320858029740842987e+00 -3.725631506413053934e-02 9.841994102565818636e-01 5.000000000000000278e-02 5.000000000000000278e-02 5.000000000000000278e-02
5.005561735261402356e-01 4.603161686646553896e+00 -4.370245659003295369e-02 9.933819090511831762e-01 5.000000000000000278e-02 5.000000000000000278e-02 5.000000000000000278e-02
5.339265850945494885e-01 4.881810845613089533e+00 -5.043717805858444897e-02 1.004252390831460451e+00 5.000000000000000278e-02 5.000000000000000278e-02 5.000000000000000278e-02
5.672969966629588523e-01 5.156776093196014266e+00 -5.737246496894157777e-02 1.016721357712158547e+00 5.000000000000000278e-02 5.000000000000000278e-02 5.000000000000000278e-02
6.006674082313682161e-01 5.428032447329856680e+00 -6.441598810599512281e-02 1.030685445987725712e+00 5.000000000000000278e-02 5.000000000000000278e-02 5.000000000000000278e-02
6.340378197997775800e-01 5.695561014094439045e+00 -7.146968300769690474e-02 1.046025185002338986e+00 5.000000000000000278e-02 5.000000000000000278e-02 5.000000000000000278e-02
6.674082313681869438e-01 5.959348613707588171e+00 -7.843273872071979125e-02 1.062611120349880922e+00 5.000000000000000278e-02 5.000000000000000278e-02 5.000000000000000278e-02
7.007786429365963077e-01 6.219388603294041751e+00 -8.520058250823471513e-02 1.080303609032617906e+00 5.000000000000000278e-02 5.000000000000000278e-02 5.000000000000000278e-02
7.341490545050055605e-01 6.475680560139211117e+00 -9.166698823751928682e-02 1.098956389309777570e+00 5.000000000000000278e-02 5.000000000000000278e-02 5.000000000000000278e-02
7.675194660734149243e-01 6.728230556864144063e+00 -9.772333747827349759e-02 1.118417213536882171e+00 5.000000000000000278e-02 5.000000000000000278e-02 5.000000000000000278e-02
8.008898776418242882e-01 6.977050843029537042e+00 -1.032600489177002284e-01 1.138529980463725000e+00 5.000000000000000278e-02 5.000000000000000278e-02 5.000000000000000278e-02
8.342602892102336520e-01 7.222159770998147543e+00 -1.081660050039117832e-01 1.159135614574131612e+00 5.000000000000000278e-02 5.000000000000000278e-02 5.000000000000000278e-02
8.676307007786430159e-01 7.463581446896056626e+00 -1.123294698517120493e-01 1.180073363409985365e+00 5.000000000000000278e-02 5.000000000000000278e-02 5.000000000000000278e-02
9.010011123470523797e-01 7.701345437644472547e+00 -1.156376001850779600e-01 1.201181647837485711e+00 5.000000000000000278e-02 5.000000000000000278e-02 5.000000000000000278e-02
9.343715239154616325e-01 7.935486379387341138e+00 -1.179769791274540014e-01 1.222298849820229849e+00 5.000000000000000278e-02 5.000000000000000278e-02 5.000000000000000278e-02
9.677419354838709964e-01 8.166043546889694582e+00 -1.192331564469044231e-01 1.243264016253132098e+00 5.000000000000000278e-02 5.000000000000000278e-02 5.000000000000000278e-02
1.001112347052280471e+00 8.393060414362743415e+00 -1.192908913113844421e-01 1.263917312957271832e+00 5.000000000000000278e-02 5.000000000000000278e-02 5.000000000000000278e-02
1.034482758620689724e+00 8.616584133006993440e+00 -1.180336867700997744e-01 1.284100539908450189e+00 5.000000000000000278e-02 5.000000000000000278e-02 5.000000000000000278e-02
1.067853170189098977e+00 8.836665038770014746e+00 -1.153438089789200899e-01 1.303657345300282655e+00 5.000000000000000278e-02 5.000000000000000278e-02 5.000000000000000278e-02
1.101223581757508452e+00 9.053356057692749204e+00 -1.111017958341973672e-01 1.322433542093041092e+00 5.000000000000000278e-02 5.000000000000000278e-02 5.000000000000000278e-02
1.134593993325917705e+00 9.266712149878367555e+00 -1.051863035286448034e-01 1.340277129593679950e+00 5.000000000000000278e-02 5.000000000000000278e-02 5.000000000000000278e-02
1.167964404894327179e+00 9.476789641872876757e+00 -9.747358210723945648e-02 1.357038411422663016e+00 5.000000000000000278e-02 5.000000000000000278e-02 5.000000000000000278e-02
1.201334816462736432e+00 9.683645587603598059e+00 -8.783719249395258166e-02 1.372569844255550064e+00 5.000000000000000278e-02 5.000000000000000278e-02 5.000000000000000278e-02
1.234705228031145685e+00 9.887337009852899428e+00 -7.614745583148814501e-02 1.386725956958249295e+00 5.000000000000000278e-02 5.000000000000000278e-02 5.000000000000000278e-02
1.268075639599555160e+00 1.008792014840704887e+01 -6.227108625350992466e-02 1.399363028679760257e+00 5.000000000000000278e-02 5.000000000000000278e-02 5.000000000000000278e-02
1.301446051167964413e+00 1.028544957769398138e+01 -4.607064004697236648e-02 1.410338804933663148e+00 5.000000000000000278e-02 5.000000000000000278e-02 5.000000000000000278e-02
1.334816462736373888e+00 1.047997730157384844e+01 -2.740412343125954095e-02 1.419511997406152304e+00 5.000000000000000278e-02 5.000000000000000278e-02 5.000000000000000278e-02
1.368186874304783140e+00 1.067155170228486405e+01 -6.124496235118772648e-03 1.426741790871134397e+00 5.000000000000000278e-02 5.000000000000000278e-02 5.000000000000000278e-02
1.401557285873192615e+00 1.086021643358455080e+01 1.792065746579270952e-02 1.431887156539754624e+00 5.000000000000000278e-02 5.000000000000000278e-02 5.000000000000000278e-02
1.434927697441601868e+00 1.104600915125876348e+01 4.488947447395361806e-02 1.434806150800864266e+00 5.000000000000000278e-02 5.000000000000000278e-02 5.000000000000000278e-02
1.468298109010011121e+00 1.122896015850164275e+01 7.494594616452700253e-02 1.435355048653361276e+00 5.000000000000000278e-02 5.000000000000000278e-02 5.000000000000000278e-02
1.501668520578420596e+00 1.140909087913803432e+01 1.082599598077279290e-01 1.433387460990694917e+00 5.000000000000000278e-02 5.000000000000000278e-02 5.000000000000000278e-02
1.535038932146829849e+00 1.158641223325687264e+01 1.450070462647838898e-01 1.428753334517475215e+00 5.000000000000000278e-02 5.000000000000000278e-02 5.000000000000000278e-02
1.568409343715239324e+00 1.176092285554666361e+01 1.853679040015857038e-01 1.421297970322275006e+00 5.000000000000000278e-02 5.000000000000000278e-02 5.000000000000000278e-02
1.601779755283648576e+00 1.193260724232635894e+01 2.295275181148768162e-01 1.410861012098257206e+00 5.000000000000000278e-02 5.000000000000000278e-02 5.000000000000000278e-02
1.635150166852057829e+00 1.210143380643532574e+01 2.776739159484499231e-01 1.397275542691049699e+00 5.000000000000000278e-02 5.000000000000000278e-02 5.000000000000000278e-02
1.668520578420467304e+00 1.226735295388806790e+01 3.299964093718865121e-01 1.380367293601596268e+00 5.000000000000000278e-02 5.000000000000000278e-02 5.000000000000000278e-02
1.701890989988876557e+00 1.243029521079934163e+01 3.866833715819860129e-01 1.359954116074906016e+00 5.000000000000000278e-02 5.000000000000000278e-02 5.000000000000000278e-02
1.735261401557286032e+00 1.259016955162164741e+01 4.479194616907822835e-01 1.335845761354763850e+00 5.000000000000000278e-02 5.000000000000000278e-02 5.000000000000000278e-02
1.768631813125695285e+00 1.274686200269112391e+01 5.138823988518606001e-01 1.307844114857132700e+00 5.000000000000000278e-02 5.000000000000000278e-02 5.000000000000000278e-02
1.802002224694104759e+00 1.290023469477573848e+01 5.847393027939113974e-01 1.275743939039996055e+00 5.000000000000000278e-02 5.000000000000000278e-02 5.000000000000000278e-02
1.835372636262514012e+00 1.305012544960667320e+01 6.606427945980053451e-01 1.239334222716048650e+00 5.000000000000000278e-02 5.000000000000000278e-02 5.000000000000000278e-02
1.868743047830923265e+00 1.319634804739565936e+01 7.417269913701260986e-01 1.198400138991967623e+00 5.000000000000000278e-02 5.000000000000000278e-02 5.000000000000000278e-02
1.902113459399332740e+00 1.333869320686961402e+01 8.281036672573927060e-01 1.152725606639950051e+00 5.000000000000000278e-02 5.000000000000000278e-02 5.000000000000000278e-02
1.935483870967741993e+00 1.347693033229853299e+01 9.198587769184276564e-01 1.102096354089523222e+00 5.000000000000000278e-02 5.000000000000000278e-02 5.000000000000000278e-02
1.968854282536151468e+00 1.361080994904482289e+01 1.017049605219325192e+00 1.046303357225773834e+00 5.000000000000000278e-02 5.000000000000000278e-02 5.000000000000000278e-02
2.002224694104560943e+00 1.374006675907998520e+01 1.119702689173316168e+00 9.851464572617339988e-01 5.000000000000000278e-02 5.000000000000000278e-02 5.000000000000000278e-02
2.035595105672970195e+00 1.386442313247484748e+01 1.227812654736530451e+00 9.184379596498688514e-01 5.000000000000000278e-02 5.000000000000000278e-02 5.000000000000000278e-02
2.068965517241379448e+00 1.398359288526521382e+01 1.341341972764074963e+00 8.460060085653253736e-01 5.000000000000000278e-02 5.000000000000000278e-02 5.000000000000000278e-02
2.102335928809788701e+00 1.409728512607701845e+01 1.460221613501413884e+00 7.676975655168633006e-01 5.000000000000000278e-02 5.000000000000000278e-02 5.000000000000000278e-02
2.135706340378197954e+00 1.420520802521735071e+01 1.584352458498548222e+00 6.833808718934605286e-01 5.000000000000000278e-02 5.000000000000000278e-02 5.000000000000000278e-02
2.169076751946607651e+00 1.430707233542165469e+01 1.713607350527948325e+00 5.929473146647294968e-01 5.000000000000000278e-02 5.000000000000000278e-02 5.000000000000000278e-02
2.202447163515016904e+00 1.440259458372521806e+01 1.847833574959751424e+00 4.963126971065635051e-01 5.000000000000000278e-02 5.000000000000000278e-02 5.000000000000000278e-02
2.235817575083426156e+00 1.449149983984372447e+01 1.986855640976394000e+00 3.934179259271595175e-01 5.000000000000000278e-02 5.000000000000000278e-02 5.000000000000000278e-02
2.269187986651835409e+00 1.457352405437404208e+01 2.130478185573279060e+00 2.842291997469357234e-01 5.000000000000000278e-02 5.000000000000000278e-02 5.000000000000000278e-02
2.302558398220244662e+00 1.464841593244936035e+01 2.278488906558814531e+00 1.687377630666503370e-01 5.000000000000000278e-02 5.000000000000000278e-02 5.000000000000000278e-02
2.335928809788654359e+00 1.471593838419932077e+01 2.430661412525900289e+00 4.695933947382196355e-02 5.000000000000000278e-02 5.000000000000000278e-02 5.000000000000000278e-02
