# time (sec); x,y,z (m); x_err,y_err,z_err (m)
0.000000000000000000e+00 0.000000000000000000e+00 0.000000000000000000e+00 1.000000000000000000e+00 5.000000000000000278e-02 5.000000000000000278e-02 5.000000000000000278e-02
3.337041156840934303e-02 3.317060418554728107e-01 5.955303244404120145e-06 9.983894519392532141e-01 5.000000000000000278e-02 5.000000000000000278e-02 5.000000000000000278e-02
6.674082313681868606e-02 6.595635200403364706e-01 -5.323835514007401327e-05 9.945944060599798409e-01 5.000000000000000278e-02 5.000000000000000278e-02 5.000000000000000278e-02
1.001112347052280360e-01 9.837347266142157931e-01 -3.394939389913573355e-04 9.894492115611108751e-01 5.000000000000000278e-02 5.000000000000000278e-02 5.000000000000000278e-02
1.334816462736373721e-01 1.304341446928612314e+00 -9.545476378348698079e-04 9.837972455076060552e-01 5.000000000000000278e-02 5.000000000000000278e-02 5.000000000000000278e-02
1.668520578420467360e-01 1.621466585671231586e+00 -2.012280666321131922e-03 9.781811421695855158e-01 5.000000000000000278e-02 5.000000000000000278e-02 5.000000000000000278e-02
2.002224694104560720e-01 1.935160375896139540e+00 -3.584689860323669354e-03 9.731463717540512759e-01 5.000000000000000278e-02 5.000000000000000278e-02 5.000000000000000278e-02
2.335928809788654081e-01 2.245449247172822016e+00 -5.732612297733693379e-03 9.690356208584147701e-01 5.000000000000000278e-02 5.000000000000000278e-02 5.000000000000000278e-02
2.669632925472747442e-01 2.552336150427847450e+00 -8.488878987940167223e-03 9.661810671888483304e-01 5.000000000000000278e-02 5.000000000000000278e-02 5.000000000000000278e-02
3.003337041156841081e-01 2.855811167602243295e+00 -1.186765731988603453e-02 9.647811343564811626e-01 5.000000000000000278e-02 5.000000000000000278e-02 5.000000000000000278e-02
3.337041156840934719e-01 3.155849664575794300e+00 -1.586414272898271569e-02 9.650154239981653115e-01 5.000000000000000278e-02 5.000000000000000278e-02 5.000000000000000278e-02
3.670745272525027803e-01 3.452421671937674130e+00 -2.045490399040741231e-02 9.669756874160607696e-01 5.000000000000000278e-02 5.000000000000000278e-02 5.000000000000000278e-02
4.004449388209121441e-01 3.745489789497574495e+00 -2.560341380526776761e-02 9.707322482877556169e-01 5.000000000000000278e-02 5.000000000000000278e-02 5.000000000000000278e-02
4.338153503893215079e-01 4.035016337631867955e+00 -3.125747416423615282e-02 9.762975084248884938e-01 5.000000000000000278e-02 5.000000000000000278e-02 5.000000000000000278e-02
4.671857619577308163e-01 4.320961699617526186e+00 -3.735580208091555249e-02 9.836636070666390230e-01 5.000000000000000278e-02 5.000000000000000278e-02 5.000000000000000278e-02
5.005561735261402356e-01 4.603289269753207513e+00 -4.382506792461408202e-02 9.927843157719273837e-01 5.000000000000000278e-02 5.000000000000000278e-02 5.000000000000000278e-02
5.339265850945494885e-01 4.881964318075096898e+00 -5.058572928082813447e-02 1.003596206547733294e+00 5.000000000000000278e-02 5.000000000000000278e-02 5.000000000000000278e-02
5.672969966629588523e-01 5.156957148990715112e+00 -5.754952881304561951e-02 1.016010457451934634e+00 5.000000000000000278e-02 5.000000000000000278e-02 5.000000000000000278e-02
6.006674082313682161e-01 5.428242360905961128e+00 -6.462409992804525605e-02 1.029924752507375807e+00 5.000000000000000278e-02 5.000000000000000278e-02 5.000000000000000278e-02
6.340378197997775800e-01 5.695800690868838778e+00 -7.171107095791999508e-02 1.045220181135871895e+00 5.000000000000000278e-02 5.000000000000000278e-02 5.000000000000000278e-02
6.674082313681869438e-01 5.959618511903328475e+00 -7.870948707857577942e-02 1.061767980201808959e+00 5.000000000000000278e-02 5.000000000000000278e-02 5.000000000000000278e-02
7.007786429365963077e-01 6.219688771102484637e+00 -8.551442666049791086e-02 1.079428897682824351e+00 5.000000000000000278e-02 5.000000000000000278e-02 5.000000000000000278e-02
7.341490545050055605e-01 6.476010601777263176e+00 -9.201944336871319130e-02 1.098057065997190218e+00 5.000000000000000278e-02 5.000000000000000278e-02 5.000000000000000278e-02
7.675194660734149243e-01 6.728589662519835812e+00 -9.811554925869747645e-02 1.117500444153077366e+00 5.000000000000000278e-02 5.000000000000000278e-02 5.000000000000000278e-02
8.008898776418242882e-01 6.977437785523481928e+00 -1.036928958324211253e-01 1.137603080074618855e+00 5.000000000000000278e-02 5.000000000000000278e-02 5.000000000000000278e-02
8.342602892102336520e-01 7.222572932313617855e+00 -1.086399938769109230e-01 1.158205927972534299e+00 5.000000000000000278e-02 5.000000000000000278e-02 5.000000000000000278e-02
8.676307007786430159e-01 7.464018834451642270e+00 -1.128448188400664881e-01 1.179148185244222269e+00 5.000000000000000278e-02 5.000000000000000278e-02 5.000000000000000278e-02
9.010011123470523797e-01 7.701804709291151241e+00 -1.161941688431350206e-01 1.200268145025006339e+00 5.000000000000000278e-02 5.000000000000000278e-02 5.000000000000000278e-02
9.343715239154616325e-01 7.935964871014093092e+00 -1.185743373038758985e-01 1.221403979732197609e+00 5.000000000000000278e-02 5.000000000000000278e-02 5.000000000000000278e-02
9.677419354838709964e-01 8.166538296454742607e+00 -1.198705400457702741e-01 1.242394475792494291e+00 5.000000000000000278e-02 5.000000000000000278e-02 5.000000000000000278e-02
1.001112347052280471e+00 8.393568194885359546e+00 -1.199672606732673785e-01 1.263079464742560054e+00 5.000000000000000278e-02 5.000000000000000278e-02 5.000000000000000278e-02
1.034482758620689724e+00 8.617101475432541235e+00 -1.187477009009676454e-01 1.283300379094008514e+00 5.000000000000000278e-02 5.000000000000000278e-02 5.000000000000000278e-02
1.067853170189098977e+00 8.837188266216061905e+00 -1.160938756834511004e-01 1.302900437729135552e+00 5.000000000000000278e-02 5.000000000000000278e-02 5.000000000000000278e-02
1.101223581757508452e+00 9.053881306561590847e+00 -1.118860586477144065e-01 1.321725003412652866e+00 5.000000000000000278e-02 5.000000000000000278e-02 5.000000000000000278e-02
1.134593993325917705e+00 9.267235402548813283e+00 -1.060026849246452629e-01 1.339621576044270235e+00 5.000000000000000278e-02 5.000000000000000278e-02 5.000000000000000278e-02
1.167964404894327179e+00 9.477306745304131752e+00 -9.831977858451994290e-02 1.356439947654124678e+00 5.000000000000000278e-02 5.000000000000000278e-02 5.000000000000000278e-02
1.201334816462736432e+00 9.684152282551306001e+00 -8.871071154404644443e-02 1.372032025652019316e+00 5.000000000000000278e-02 5.000000000000000278e-02 5.000000000000000278e-02
1.234705228031145685e+00 9.887828946118183637e+00 -7.704561564989961808e-02 1.386251783468191556e+00 5.000000000000000278e-02 5.000000000000000278e-02 5.000000000000000278e-02
1.268075639599555160e+00 1.008839290916297493e+01 -6.319104676172386525e-02 1.398954916644245428e+00 5.000000000000000278e-02 5.000000000000000278e-02 5.000000000000000278e-02
1.301446051167964413e+00 1.028589869041117311e+01 -4.700940457991322624e-02 1.409998584603337379e+00 5.000000000000000278e-02 5.000000000000000278e-02 5.000000000000000278e-02
1.334816462736373888e+00 1.048039825621873788e+01 -2.835856402021471462e-02 1.419240891722446163e+00 5.000000000000000278e-02 5.000000000000000278e-02 5.000000000000000278e-02
1.368186874304783140e+00 1.067193995671761719e+01 -7.091355493880232425e-03 1.426540414393944189e+00 5.000000000000000278e-02 5.000000000000000278e-02 5.000000000000000278e-02
1.401557285873192615e+00 1.086056742427772015e+01 1.694474629766876128e-02 1.431755498325709697e+00 5.000000000000000278e-02 5.000000000000000278e-02 5.000000000000000278e-02
1.434927697441601868e+00 1.104631829159231948e+01 4.390798612419163222e-02 1.434743572393898825e+00 5.000000000000000278e-02 5.000000000000000278e-02 5.000000000000000278e-02
1.468298109010011121e+00 1.122922284033376172e+01 7.396244718932210027e-02 1.435360268107896298e+00 5.000000000000000278e-02 5.000000000000000278e-02 5.000000000000000278e-02
1.501668520578420596e+00 1.140930246200614384e+01 1.072781067368180075e-01 1.433458547648284620e+00 5.000000000000000278e-02 5.000000000000000278e-02 5.000000000000000278e-02
1.535038932146829849e+00 1.158656803483120967e+01 1.440305704368931572e-01 1.428887691567238827e+00 5.000000000000000278e-02 5.000000000000000278e-02 5.000000000000000278e-02
1.568409343715239324e+00 1.176101812958936144e+01 1.844006060041116501e-01 1.421492324755359693e+00 5.000000000000000278e-02 5.000000000000000278e-02 5.000000000000000278e-02
1.601779755283648576e+00 1.193263715625303512e+01 2.285732482539566124e-01 1.411111394490129234e+00 5.000000000000000278e-02 5.000000000000000278e-02 5.000000000000000278e-02
1.635150166852057829e+00 1.210139340660717799e+01 2.767365588266267329e-01 1.397577272659793257e+00 5.000000000000000278e-02 5.000000000000000278e-02 5.000000000000000278e-02
1.668520578420467304e+00 1.226723712998837712e+01 3.290798519784500220e-01 1.380714958401183745e+00 5.000000000000000278e-02 5.000000000000000278e-02 5.000000000000000278e-02
1.701890989988876557e+00 1.243009864949839915e+01 3.857914694357852392e-01 1.360341555671997549e+00 5.000000000000000278e-02 5.000000000000000278e-02 5.000000000000000278e-02
1.735261401557286032e+00 1.258988669103584357e+01 4.470559853361688596e-01 1.336266052191893428e+00 5.000000000000000278e-02 5.000000000000000278e-02 5.000000000000000278e-02
1.768631813125695285e+00 1.274648698014599901e+01 5.130509734165167313e-01 1.308289563971079428e+00 5.000000000000000278e-02 5.000000000000000278e-02 5.000000000000000278e-02
1.802002224694104759e+00 1.289976130009711319e+01 5.839433267644938974e-01 1.276206084720907574e+00 5.000000000000000278e-02 5.000000000000000278e-02 5.000000000000000278e-02
1.835372636262514012e+00 1.304954707844535378e+01 6.598853507033795029e-01 1.239803851511395161e+00 5.000000000000000278e-02 5.000000000000000278e-02 5.000000000000000278e-02
1.868743047830923265e+00 1.319565766708936039e+01 7.410107409050989968e-01 1.198867317376774100e+00 5.000000000000000278e-02 5.000000000000000278e-02 5.000000000000000278e-02
1.902113459399332740e+00 1.333788332999297133e+01 8.274307421194799783e-01 1.153179733951045893e+00 5.000000000000000278e-02 5.000000000000000278e-02 5.000000000000000278e-02
1.935483870967741993e+00 1.347599300901723041e+01 9.192306658646862694e-01 1.102526234553466544e+00 5.000000000000000278e-02 5.000000000000000278e-02 5.000000000000000278e-02
1.968854282536151468e+00 1.360973677202591148e+01 1.016467049148829460e+00 1.046697292872003748e+00 5.000000000000000278e-02 5.000000000000000278e-02 5.000000000000000278e-02
2.002224694104560943e+00 1.373884888891869416e+01 1.119165584605122943e+00 9.854923573282339255e-01 5.000000000000000278e-02 5.000000000000000278e-02 5.000000000000000278e-02
2.035595105672970195e+00 1.386305133479567075e+01 1.227319977828918329e+00 9.187234635486241086e-01 5.000000000000000278e-02 5.000000000000000278e-02 5.000000000000000278e-02
2.068965517241379448e+00 1.398205758412185418e+01 1.340891722815622522e+00 8.462186159191503743e-01 5.000000000000000278e-02 5.000000000000000278e-02 5.000000000000000278e-02
2.102335928809788701e+00 1.409557646280010701e+01 1.459810779688329063e+00 7.678247702871566771e-01 5.000000000000000278e-02 5.000000000000000278e-02 5.000000000000000278e-02
2.135706340378197954e+00 1.420331592573473678e+01 1.583977014778432890e+00 6.834102884539561273e-01 5.000000000000000278e-02 5.000000000000000278e-02 5.000000000000000278e-02
2.169076751946607651e+00 1.430498657587161482e+01 1.713262265297690323e+00 5.928668025772769745e-01 5.000000000000000278e-02 5.000000000000000278e-02 5.000000000000000278e-02
2.202447163515016904e+00 1.440030485604192734e+01 1.847512846366496486e+00 4.961104676858483775e-01 5.000000000000000278e-02 5.000000000000000278e-02 5.000000000000000278e-02
2.235817575083426156e+00 1.448899581102121914e+01 1.986552342139395133e+00 3.930826408406346006e-01 5.000000000000000278e-02 5.000000000000000278e-02 5.000000000000000278e-02
2.269187986651835409e+00 1.457079542052548327e+01 2.130184523401680519e+00 2.837500513207266151e-01 5.000000000000000278e-02 5.000000000000000278e-02 5.000000000000000278e-02
2.302558398220244662e+00 1.464545246382344246e+01 2.278196285993002945e+00 1.681045425796723614e-01 5.000000000000000278e-02 5.000000000000000278e-02 5.000000000000000278e-02
2.335928809788654359e+00 1.471272996397784460e+01 2.430360504480362227e+00 4.616249083295889677e-02 5.000000000000000278e-02 5.000000000000000278e-02 5.000000000000000278e-02
2.369299221357063612e+00 1.473544786675464557e+01 2.487001044693673446e+00 -1.261196104864455111e-08 5.000000000000000278e-02 5.000000000000000278e-02 5.000000000000000278e-02
2.402669632925472865e+00 1.473544786675464557e+01 2.487001044693673446e+00 -1.261196104864455111e-08 5.000000000000000278e-02 5.000000000000000278e-02 5.000000000000000278e-02
2.436040044493882117e+00 1.473544786675464557e+01 2.487001044693673446e+00 -1.261196104864455111e-08 5.000000000000000278e-02 5.000000000000000278e-02 5.000000000000000278e-02
2.469410456062291370e+00 1.473544786675464557e+01 2.487001044693673446e+00 -1.261196104864455111e-08 5.000000000000000278e-02 5.000000000000000278e-02 5.000000000000000278e-02
2.502780867630701067e+00 1.473544786675464557e+01 2.487001044693673446e+00 -1.261196104864455111e-08 5.000000000000000278e-02 5.000000000000000278e-02 5.000000000000000278e-02
2.536151279199110320e+00 1.473544786675464557e+01 2.487001044693673446e+00 -1.261196104864455111e-08 5.000000000000000278e-02 5.000000000000000278e-02 5.000000000000000278e-02
2.569521690767519573e+00 1.473544786675464557e+01 2.487001044693673446e+00 -1.261196104864455111e-08 5.000000000000000278e-02 5.000000000000000278e-02 5.000000000000000278e-02
2.602892102335928826e+00 1.473544786675464557e+01 2.487001044693673446e+00 -1.261196104864455111e-08 5.000000000000000278e-02 5.000000000000000278e-02 5.000000000000000278e-02
2.636262513904338523e+00 1.473544786675464557e+01 2.487001044693673446e+00 -1.261196104864455111e-08 5.000000000000000278e-02 5.000000000000000278e-02 5.000000000000000278e-02
2.669632925472747775e+00 1.473544786675464557e+01 2.487001044693673446e+00 -1.261196104864455111e-08 5.000000000000000278e-02 5.000000000000000278e-02 5.000000000000000278e-02
2.703003337041157028e+00 1.473544786675464557e+01 2.487001044693673446e+00 -1.261196104864455111e-08 5.000000000000000278e-02 5.000000000000000278e-02 5.000000000000000278e-02
2.736373748609566281e+00 1.473544786675464557e+01 2.487001044693673446e+00 -1.261196104864455111e-08 5.000000000000000278e-02 5.000000000000000278e-02 5.000000000000000278e-02
2.769744160177975534e+00 1.473544786675464557e+01 2.487001044693673446e+00 -1.261196104864455111e-08 5.000000000000000278e-02 5.000000000000000278e-02 5.000000000000000278e-02
2.803114571746385231e+00 1.473544786675464557e+01 2.487001044693673446e+00 -1.261196104864455111e-08 5.000000000000000278e-02 5.000000000000000278e-02 5.000000000000000278e-02
2.836484983314794484e+00 1.473544786675464557e+01 2.487001044693673446e+00 -1.261196104864455111e-08 5.000000000000000278e-02 5.000000000000000278e-02 5.000000000000000278e-02
2.869855394883203736e+00 1.473544786675464557e+01 2.487001044693673446e+00 -1.261196104864455111e-08 5.000000000000000278e-02 5.000000000000000278e-02 5.000000000000000278e-02
2.903225806451612989e+00 1.473544786675464557e+01 2.487001044693673446e+00 -1.261196104864455111e-08 5.000000000000000278e-02 5.000000000000000278e-02 5.000000000000000278e-02
2.936596218020022242e+00 1.473544786675464557e+01 2.487001044693673446e+00 -1.261196104864455111e-08 5.000000000000000278e-02 5.000000000000000278e-02 5.000000000000000278e-02
2.969966629588431939e+00 1.473544786675464557e+01 2.487001044693673446e+00 -1.261196104864455111e-08 5.000000000000000278e-02 5.000000000000000278e-02 5.000000000000000278e-02
